3 1
90 100 10
90
0 5
1 5
2 0
3 0
4 7
5 3
6 1
7 2
8 7
9 0
10 9
11 5
12 4
13 4
14 0
15 5
16 3
17 0
18 4
19 3
20 8
21 0
22 4
23 3
24 0
25 2
26 8
27 0
28 7
29 9
30 6
31 5
32 8
33 7
34 6
35 0
36 2
37 5
38 0
39 5
40 5
41 0
42 4
43 0
44 8
45 5
46 1
47 5
48 5
49 8
50 6
51 0
52 0
53 6
54 8
55 7
56 9
57 8
58 8
59 3
60 4
61 8
62 9
63 2
64 1
65 6
66 5
67 1
68 4
69 8
70 4
71 3
72 2
73 7
74 5
75 5
76 7
77 2
78 5
79 5
80 1
81 8
82 7
83 3
84 9
85 3
86 7
87 7
88 3
89 1
0	66	73	74	24	27	15	3	89	30	39	84	56	42	56	59	48	79	51	37	74	35	74	60	76	81	46	21	2	67	45	14	53	32	49	68	60	21	2	64	59	37	84	84	18	53	18	9	32	73	21	65	2	2	71	63	27	81	80	53	78	30	32	20	44	19	25	3	60	39	47	51	2	32	39	74	53	48	78	25	60	24	14	35	23	28	14	42	84	54	28	48	80	46	51	6	21	72	49	41	87
1	4	60	88	48	4	5	53	56	12	52	42	52	35	79	55	76	8	77	83	0	64	2	34	0	10	14	33	71	83	82	51	44	75	54	43	86	72	18	5	68	42	46	71	89	6	30	51	43	35	36	81	81	65	43	40	11	7	49	65	63	58	66	5	70	61	75	19	53	12	55	14	60	17	54	23	61	26	78	19	27	70	40	14	56	83	68	9	59	6	58	44	38	78	42	21	46	30	36	30	86
2	27	30	28	51	1	58	55	25	75	25	25	68	1	9	26	30	60	7	17	44	52	69	85	24	10	6	42	81	22	58	84	84	47	82	12	72	46	10	67	46	24	49	51	62	44	1	58	70	82	14	76	67	23	32	30	62	16	64	70	34	82	17	84	89	72	16	2	39	87	79	15	45	16	16	61	16	65	82	56	70	61	1	62	89	31	48	62	36	23	7	27	75	61	9	86	58	2	42	8	49
3	61	9	40	73	85	12	9	1	64	22	30	78	79	14	57	18	5	55	79	66	78	26	82	63	53	80	69	3	6	37	61	79	82	25	71	30	58	41	18	2	73	49	3	70	18	22	6	52	48	30	71	27	9	61	40	40	74	38	71	57	50	81	55	24	49	28	59	41	65	74	7	52	86	71	49	46	19	58	38	80	56	76	5	2	12	7	52	18	23	76	42	30	2	32	73	19	59	50	0	58
4	83	21	88	33	83	37	72	69	37	76	13	8	28	43	17	32	72	46	63	30	72	64	15	15	83	43	6	35	76	57	70	15	21	81	69	43	52	23	35	35	25	75	31	69	15	25	61	72	0	63	34	59	85	87	78	71	38	50	1	87	69	55	3	19	43	67	33	44	48	27	86	49	77	71	13	50	81	35	72	68	35	36	72	19	40	89	63	8	79	83	8	35	9	0	27	65	20	59	40	3
5	10	17	2	75	34	54	41	72	83	32	67	40	54	87	16	56	56	39	45	41	19	44	63	50	12	37	36	74	83	17	54	40	83	71	69	43	70	6	89	80	52	30	45	72	83	0	45	57	70	41	2	56	29	51	18	53	19	20	58	11	4	20	25	29	1	33	43	56	77	79	54	83	8	52	7	11	82	44	61	72	12	40	86	44	11	71	52	29	38	69	39	30	80	89	84	50	58	45	25	15
6	35	58	72	4	41	68	16	84	54	3	50	46	67	22	74	57	16	5	76	49	70	12	7	87	42	84	64	43	71	23	7	10	5	67	84	3	74	2	47	18	8	21	66	73	50	4	84	78	3	67	87	68	24	49	51	47	80	16	61	77	23	1	61	15	25	53	44	77	74	84	65	26	37	29	66	21	31	38	59	32	6	58	59	53	56	64	4	8	1	3	83	70	66	50	68	3	27	11	44	5
7	30	32	11	2	27	77	3	50	73	33	17	60	67	0	49	27	37	51	19	15	51	15	10	59	5	86	7	0	50	71	9	24	81	34	11	28	40	55	85	70	48	13	36	73	1	5	13	17	32	64	82	39	23	62	9	31	49	73	85	69	1	7	21	79	85	69	67	77	46	85	40	42	79	50	15	2	13	85	69	33	59	71	71	5	48	6	47	8	52	81	61	27	58	21	58	33	76	35	15	29
8	79	55	72	49	21	52	38	88	74	64	62	78	62	3	17	58	74	11	60	32	37	56	50	5	32	57	9	47	77	57	16	87	79	45	68	30	62	57	64	77	87	10	10	35	53	86	57	4	30	19	10	27	29	50	55	52	84	88	22	76	81	26	67	44	65	7	10	39	35	61	45	88	22	8	89	81	30	53	24	54	18	62	83	3	2	73	69	23	74	53	31	80	12	30	41	65	42	4	58	73
9	13	76	33	18	21	0	19	69	81	9	16	0	51	65	17	45	57	54	3	43	58	0	73	72	21	41	75	11	5	58	67	1	0	65	33	70	23	53	45	64	10	10	33	10	10	56	83	51	69	65	77	4	61	14	72	80	7	31	32	41	24	43	80	60	30	20	63	29	55	12	40	85	41	78	67	47	71	1	8	74	8	34	1	31	16	33	43	8	14	20	31	60	88	21	31	89	84	67	49	52
10	47	79	66	78	54	64	6	4	3	0	20	6	12	15	81	3	22	19	56	47	83	77	75	34	53	36	24	42	15	82	54	0	86	82	49	38	79	36	76	60	55	17	87	44	12	74	72	81	78	80	15	64	69	13	3	32	49	50	62	4	34	75	59	33	85	33	14	70	50	89	63	4	61	28	72	66	39	59	89	56	78	70	67	57	78	30	77	73	24	57	59	87	60	2	43	46	16	78	73	49
11	73	29	81	2	52	53	15	66	16	26	48	67	6	64	82	49	32	35	1	40	81	17	63	78	9	19	46	6	40	48	34	65	59	7	64	88	41	51	20	71	32	75	35	39	85	84	13	8	6	14	16	12	46	87	58	67	55	56	10	72	13	53	78	72	7	55	15	49	26	30	0	61	67	56	36	23	4	73	72	43	3	29	86	30	15	3	5	5	9	80	57	83	66	79	85	30	65	53	33	69
12	6	14	49	35	15	36	18	4	67	38	85	2	74	64	71	61	45	2	17	51	12	83	9	86	46	38	27	49	30	7	13	83	36	75	58	41	21	25	39	4	15	15	71	44	10	41	86	19	27	75	44	37	30	6	58	86	67	78	33	78	33	50	19	0	8	31	5	62	36	72	45	0	53	44	18	12	25	25	55	51	9	62	88	15	10	6	14	10	28	85	49	25	26	62	15	11	44	18	38	35
13	8	82	73	75	77	61	88	51	67	8	71	41	40	19	71	52	73	78	23	13	18	1	3	77	28	68	52	61	5	16	16	85	54	76	42	78	82	6	76	48	65	29	40	26	53	55	72	6	51	89	75	9	25	62	8	31	63	23	67	66	4	61	61	45	81	13	60	86	37	36	28	45	16	49	42	40	64	1	77	18	35	27	16	47	9	78	63	60	30	13	77	53	57	9	11	26	9	87	25	8
14	84	4	78	11	20	4	28	89	0	41	38	7	36	85	70	20	26	87	50	21	18	58	12	64	67	51	49	3	0	59	25	87	6	36	79	32	52	26	60	27	15	86	26	2	14	50	87	21	17	78	61	73	7	46	48	33	33	23	2	74	33	87	12	39	2	41	40	66	7	1	2	13	30	14	56	72	48	10	66	27	6	45	39	43	48	61	75	75	14	8	35	10	82	86	60	59	18	51	57	2
15	23	51	51	43	84	71	82	52	6	70	18	35	25	42	50	61	22	63	83	87	74	89	34	75	83	26	7	30	50	32	36	31	47	45	44	79	65	27	16	87	11	36	29	58	59	53	24	28	45	28	24	80	69	43	45	5	4	74	85	35	21	88	61	37	28	77	78	25	6	20	53	64	86	4	65	80	17	16	81	60	50	63	32	19	48	31	28	39	28	59	38	25	82	69	84	88	68	80	56	64
16	31	64	79	17	83	16	11	8	63	78	48	23	61	34	61	66	30	85	7	80	81	55	38	61	34	46	86	33	3	34	49	78	61	2	88	5	85	45	3	74	75	50	19	16	71	23	33	71	24	70	11	76	70	61	4	80	27	45	0	32	2	42	24	67	15	8	36	17	82	31	77	76	14	72	70	72	79	58	53	5	32	71	38	85	84	21	15	24	11	29	42	0	48	64	44	61	68	87	76	16
17	77	19	79	25	3	11	3	73	53	31	28	56	41	36	6	20	88	88	29	68	8	67	58	59	32	72	42	37	32	14	64	67	19	15	16	74	69	69	50	27	60	18	37	65	28	24	81	23	48	6	22	50	54	19	39	7	11	1	46	85	43	59	10	87	59	30	75	32	49	22	74	67	58	65	50	35	61	45	46	73	20	8	29	35	67	35	75	55	15	89	0	80	87	70	34	37	55	58	64	14
18	35	30	30	15	84	59	43	55	86	51	57	13	30	77	82	11	37	31	62	62	86	73	68	8	84	5	40	83	37	3	51	4	29	39	17	54	71	26	47	0	58	27	56	62	8	66	23	27	34	41	53	22	59	54	67	56	88	46	21	72	20	88	4	85	84	3	53	74	24	7	19	36	78	85	88	57	56	20	27	58	58	54	23	55	25	34	77	25	21	60	54	74	1	24	60	40	5	23	52	67
19	47	87	62	22	77	4	68	15	0	39	8	18	50	83	7	38	80	88	58	80	65	29	8	72	77	19	78	19	17	33	85	71	40	24	4	86	49	52	14	87	86	68	46	46	67	86	23	77	31	7	68	74	30	40	31	24	40	28	87	48	64	10	48	62	69	50	25	76	74	88	8	23	36	80	18	42	42	66	11	17	23	42	59	84	1	67	69	86	47	51	86	80	86	69	89	43	14	3	27	13
20	50	82	39	32	73	5	68	27	89	51	63	25	18	30	44	15	41	89	53	4	61	26	78	38	13	52	59	65	17	89	70	60	29	32	89	22	66	60	51	67	45	3	73	30	73	27	50	5	14	52	82	87	26	9	68	26	19	65	6	20	9	31	36	60	51	86	20	3	50	65	11	61	72	22	47	79	19	40	80	41	51	9	85	67	54	18	19	16	4	15	37	25	33	15	55	56	72	36	64	22
21	49	40	44	54	82	52	31	79	68	7	28	60	7	58	40	48	0	83	0	19	54	61	68	48	4	1	77	34	14	5	62	2	67	42	75	13	51	4	75	55	52	82	72	11	78	46	19	6	25	16	53	75	33	21	21	81	14	67	20	28	81	42	39	51	15	71	2	43	20	56	45	73	46	87	77	79	89	55	0	28	50	17	30	73	5	28	61	76	54	73	83	5	82	43	13	59	68	76	80	16
22	39	85	52	36	37	84	15	35	38	86	25	61	55	37	50	40	81	44	76	1	18	71	79	59	8	55	54	25	14	25	25	13	52	0	37	79	2	49	8	18	80	21	36	88	12	84	37	15	30	79	22	43	46	75	1	43	28	44	70	87	6	37	55	40	78	1	77	9	1	84	81	48	16	15	71	26	51	1	81	3	45	11	52	82	18	13	3	38	10	16	28	56	3	60	37	85	36	62	4	13
23	63	81	68	76	82	25	43	17	42	35	85	30	34	4	5	2	55	61	57	55	10	17	87	25	19	74	7	39	10	13	62	56	51	34	70	2	41	88	53	51	11	0	23	69	85	82	89	17	79	56	10	47	45	35	89	61	7	33	65	41	85	72	46	49	67	64	83	11	14	35	85	63	60	44	39	26	1	23	56	76	32	40	3	4	64	83	82	63	54	71	39	67	58	36	9	2	26	47	81	87
24	17	2	39	21	15	62	12	50	17	21	70	12	1	12	45	51	76	39	76	60	80	19	16	35	63	21	72	80	20	5	39	31	51	40	50	8	54	51	59	17	1	1	35	30	67	81	66	66	79	86	82	35	60	81	75	82	62	68	2	17	32	66	3	68	41	3	8	77	70	87	32	44	84	47	20	23	22	45	54	49	67	63	10	78	77	54	6	13	76	89	82	24	39	46	17	76	37	15	19	19
25	28	59	19	2	27	74	82	85	23	86	5	33	8	42	22	50	81	52	39	42	50	17	53	83	89	39	16	60	31	76	26	21	75	7	40	69	11	29	1	84	25	59	73	13	64	25	7	36	42	34	33	32	79	6	84	45	55	31	9	72	66	22	43	48	69	81	72	84	58	2	75	13	70	36	38	82	83	66	19	39	75	62	28	85	68	62	70	27	41	1	11	7	3	7	74	3	28	9	11	23
26	48	13	56	62	82	34	50	17	33	51	89	32	19	86	34	53	87	44	71	47	86	87	0	59	49	37	30	84	73	29	1	73	78	29	49	28	80	11	31	86	4	0	89	12	71	69	62	88	34	20	51	26	89	71	68	17	48	60	53	72	17	23	89	8	3	50	49	80	61	56	9	49	24	59	21	4	46	7	22	27	54	19	50	26	56	57	79	62	4	41	32	78	47	8	41	81	68	9	52	75
27	28	1	89	49	4	43	88	73	26	33	68	8	86	77	3	62	60	5	5	36	83	14	17	41	42	42	62	29	45	78	32	86	44	16	88	86	13	78	4	42	73	37	89	12	86	17	22	68	74	83	57	14	16	8	48	18	74	26	72	9	27	82	47	23	79	87	85	25	36	36	32	61	74	20	48	65	69	43	21	35	64	29	83	4	35	34	48	40	89	3	83	6	54	59	50	33	83	81	50	25
28	35	33	56	3	58	32	78	58	48	43	83	72	79	1	3	37	12	10	39	52	54	17	76	49	25	13	73	86	19	70	49	3	70	5	40	79	75	73	29	62	13	23	13	42	44	80	13	25	81	4	28	48	78	86	29	19	29	46	56	39	74	75	23	22	64	42	27	74	42	69	87	28	45	9	47	40	81	36	12	65	83	15	85	55	79	64	89	22	46	31	10	28	88	39	19	60	60	62	45	63
29	66	76	12	29	35	88	67	80	11	14	72	40	46	82	24	37	77	33	44	87	45	66	12	66	62	52	42	58	63	40	26	87	55	11	50	68	31	4	18	45	12	31	63	41	62	9	82	2	65	10	12	29	70	6	70	80	89	56	26	86	75	54	75	27	4	81	14	16	82	64	18	34	71	39	51	85	39	71	23	69	15	41	14	35	76	89	60	54	39	25	45	41	78	37	89	59	65	8	58	43
30	30	12	81	88	71	22	70	69	54	52	79	45	81	36	68	70	0	62	36	87	73	39	17	53	60	76	57	64	23	63	48	86	82	47	35	87	64	5	51	4	64	30	1	28	49	22	76	37	26	61	58	43	60	46	84	27	81	67	48	17	5	22	36	15	71	49	53	61	1	41	13	12	48	33	77	62	50	65	43	59	85	70	52	1	30	42	30	48	83	72	25	23	65	57	47	10	81	28	34	62
31	6	50	49	88	36	23	29	54	9	84	33	10	66	28	54	81	10	40	83	0	22	60	31	51	22	24	8	14	5	27	34	64	16	43	61	71	66	10	42	34	40	28	14	5	47	70	66	52	21	74	13	50	8	56	87	12	85	53	15	22	7	12	21	26	16	10	39	16	55	37	0	41	62	59	21	60	83	30	6	13	49	66	8	44	49	30	46	9	64	65	64	22	48	16	23	88	24	43	36	2
32	24	70	50	9	66	10	19	83	39	25	44	79	2	24	87	39	68	63	0	29	39	88	51	74	71	87	77	71	19	16	16	78	45	44	66	48	36	35	16	7	59	33	61	57	47	24	63	39	40	7	35	87	84	17	41	73	37	36	21	27	68	3	11	15	11	82	76	52	23	31	38	47	67	64	20	49	59	64	19	85	44	16	59	27	64	45	2	41	44	63	43	12	35	16	54	29	83	16	31	33
33	1	34	73	25	78	70	69	2	83	88	19	70	46	6	31	20	21	38	52	45	14	68	34	53	54	29	69	55	47	34	23	46	89	14	29	65	7	51	52	78	68	85	35	87	86	23	13	85	1	66	48	70	39	45	81	21	73	29	67	75	18	24	47	72	56	63	68	44	25	15	88	40	34	69	4	15	25	55	49	11	22	83	7	71	13	32	64	86	19	68	28	36	43	74	29	54	86	51	66	64
34	31	26	3	36	5	85	59	24	66	24	73	65	1	35	29	19	80	22	33	4	70	17	24	78	32	47	17	42	16	44	65	60	73	82	75	51	60	34	45	43	38	80	23	81	30	31	12	27	45	25	19	16	56	69	38	10	2	10	88	45	5	58	19	39	35	34	11	40	18	38	56	56	29	38	82	55	7	86	44	36	35	82	62	44	50	0	26	49	42	57	2	2	53	68	32	86	32	48	71	65
35	31	71	6	54	33	20	75	64	84	24	3	48	69	23	82	27	21	60	24	81	38	73	85	80	26	62	29	88	5	39	39	41	84	33	55	73	34	86	69	74	62	22	21	78	3	51	1	38	17	8	57	21	48	42	77	16	73	72	21	26	60	52	40	24	25	68	5	14	81	70	42	64	60	32	66	9	21	50	78	10	8	73	52	11	49	70	5	38	51	68	78	35	10	80	28	89	87	59	4	64
36	43	14	48	53	27	58	68	14	30	18	28	76	11	81	16	28	66	49	40	55	77	56	2	74	50	42	24	74	11	24	88	13	39	70	44	6	73	18	49	44	9	2	9	57	46	63	33	4	52	68	84	77	82	78	38	69	50	14	46	30	87	9	23	16	10	8	58	2	26	78	9	78	45	70	59	56	29	79	73	88	16	73	41	83	68	32	44	53	77	69	78	52	50	14	17	13	58	53	18	82
37	79	41	39	29	85	55	54	69	56	45	32	3	58	45	54	77	25	24	56	4	0	74	35	87	67	51	69	81	4	21	21	34	27	45	38	42	85	25	11	77	12	19	46	57	82	86	75	80	22	17	10	50	41	87	63	12	29	20	4	16	15	30	67	47	39	71	70	17	83	41	33	39	66	71	56	30	75	61	54	1	48	89	11	46	46	31	40	30	86	87	81	59	68	65	51	75	65	22	87	51
38	86	61	53	20	70	37	8	39	88	52	20	20	49	6	58	75	18	42	17	78	16	36	0	1	43	33	45	9	71	54	50	46	33	39	44	55	88	68	2	30	9	5	69	5	66	16	49	3	64	18	33	76	28	15	89	37	75	71	5	43	83	61	65	72	86	87	11	81	40	70	46	72	47	59	37	35	36	31	60	53	81	77	7	27	71	45	35	34	18	66	64	60	39	67	80	80	64	59	89	13
39	53	70	31	16	65	41	89	62	73	85	59	61	53	2	45	84	51	0	49	76	74	58	78	53	41	38	0	53	21	18	71	61	31	57	53	7	59	67	18	35	84	80	85	67	35	55	69	64	75	39	62	6	83	79	61	56	86	63	9	85	16	84	74	2	70	29	64	30	49	44	76	49	68	33	88	46	84	9	47	0	32	21	82	66	40	54	20	30	71	5	81	45	12	32	52	40	59	40	24	44
40	32	60	35	55	5	87	86	33	42	13	67	47	4	10	19	79	23	3	57	85	59	20	19	21	19	32	11	22	69	70	65	4	77	87	29	28	44	64	15	63	42	89	76	44	38	86	37	3	12	79	52	72	28	19	49	18	84	37	48	16	54	49	44	27	75	15	72	77	57	65	41	43	6	8	54	27	11	26	32	71	62	25	78	79	11	64	34	20	12	1	69	49	62	38	46	63	63	60	89	65
41	89	80	79	11	21	23	9	81	43	78	58	32	54	63	4	31	42	49	2	16	88	24	60	78	40	28	8	83	5	4	1	79	69	21	10	21	82	73	73	41	79	83	57	32	2	1	56	61	66	84	65	43	26	67	86	11	86	49	86	40	13	29	66	43	17	8	75	2	87	23	61	52	26	85	69	66	26	28	0	80	76	53	50	84	64	6	9	43	30	0	0	55	20	79	4	20	28	50	54	60
42	82	75	78	33	74	79	36	54	51	30	26	35	0	48	43	56	81	54	53	60	46	63	73	51	23	48	37	11	6	51	61	26	40	60	18	1	41	89	35	69	83	88	52	78	79	10	29	3	28	71	59	65	47	14	7	61	29	51	36	57	24	76	35	75	81	54	39	33	78	85	83	17	12	56	0	34	27	3	76	14	29	48	60	20	75	17	6	52	18	28	56	39	51	22	88	0	53	75	15	50
43	68	73	75	29	2	87	18	25	79	48	42	13	21	29	50	68	13	2	21	35	48	61	7	74	53	15	32	68	62	67	84	9	56	6	75	88	18	7	7	52	14	14	64	62	5	54	25	60	82	34	66	62	85	14	13	13	67	32	40	27	23	30	9	64	80	34	39	25	19	42	10	43	42	57	6	68	73	59	57	36	43	7	38	14	77	17	70	34	26	70	86	38	17	62	81	74	72	2	26	63
44	35	83	74	41	10	29	50	64	24	74	40	84	2	50	39	11	50	80	85	70	40	86	60	15	16	47	44	82	56	53	63	28	2	66	51	43	5	85	24	33	31	84	9	53	66	50	51	13	35	61	27	89	28	65	87	1	4	81	78	7	19	77	77	29	18	36	40	87	45	32	23	76	40	9	11	1	46	17	33	25	25	27	55	12	59	23	30	68	29	7	86	50	51	12	88	34	8	3	71	48
45	15	10	28	49	6	87	78	23	16	75	39	68	27	78	33	39	43	9	85	47	23	81	34	18	34	16	76	42	38	76	26	32	72	78	9	44	69	39	40	74	34	52	15	36	9	2	83	76	35	19	4	87	28	39	82	0	42	9	53	15	84	49	4	74	10	70	24	86	48	79	88	39	77	38	2	24	54	53	61	37	2	3	61	87	60	13	85	60	16	9	67	10	33	30	57	70	45	28	22	41
46	50	82	34	23	88	8	83	76	14	83	75	55	56	13	53	84	19	89	79	75	6	16	4	42	24	49	67	47	38	46	27	0	81	55	40	77	11	48	11	87	31	58	18	38	59	55	56	46	87	13	3	79	24	31	80	81	75	16	66	44	8	42	65	12	30	34	85	22	45	17	42	79	41	66	78	12	18	89	42	68	68	25	39	36	0	26	61	20	49	34	87	66	54	84	57	33	57	16	27	51
47	11	59	72	13	61	55	53	31	40	5	50	15	18	34	15	29	29	75	57	69	28	58	69	56	88	72	77	5	29	87	11	62	10	7	63	70	11	6	87	88	18	81	34	42	71	79	10	9	16	34	83	11	33	4	18	72	7	57	25	53	89	46	57	52	10	1	77	10	65	27	55	60	26	26	11	82	6	38	88	38	16	41	38	34	39	87	16	33	58	9	60	73	80	57	3	53	89	29	47	87
48	22	73	82	0	40	8	89	6	14	14	36	34	7	16	17	85	34	7	49	65	23	27	40	10	22	57	36	59	28	10	17	26	39	41	8	17	22	62	84	77	30	53	80	48	29	5	64	61	69	36	6	76	45	74	29	1	21	23	58	78	44	10	79	51	86	53	35	69	2	55	83	54	64	61	76	58	37	67	73	59	17	44	34	77	68	48	36	50	75	52	55	72	74	28	61	75	4	79	65	52
49	18	17	64	6	4	50	49	9	62	40	75	36	84	15	77	29	17	67	82	13	82	85	88	38	64	83	50	7	24	20	17	85	78	60	76	23	17	89	1	38	10	63	19	76	23	56	81	27	81	86	9	50	10	24	27	87	2	79	20	8	52	14	37	50	12	83	87	52	80	72	26	60	78	49	16	30	39	41	68	84	86	30	63	75	12	62	2	14	74	9	45	63	19	42	7	26	84	13	35	88
50	50	42	32	10	65	10	74	42	32	67	38	12	10	11	65	49	31	73	42	89	84	16	69	33	9	22	76	62	3	4	39	40	59	58	68	51	45	14	13	25	79	59	0	85	32	26	79	52	24	44	79	1	16	89	52	69	5	89	83	43	16	39	19	69	55	52	31	6	89	63	5	27	78	3	25	64	7	69	53	13	81	5	22	89	86	65	23	2	66	59	68	62	78	56	65	70	34	74	41	17
51	50	19	20	11	84	76	79	37	74	14	39	80	54	23	47	86	78	0	75	52	68	50	37	6	51	45	84	76	6	88	56	71	56	47	22	12	44	61	48	11	88	33	62	73	10	11	50	63	14	65	39	26	48	32	83	29	47	82	50	51	67	52	86	2	44	55	59	62	4	33	65	45	73	56	49	33	46	1	88	83	15	34	5	33	36	89	30	76	3	41	21	12	1	10	60	56	27	19	73	66
52	77	9	64	50	41	57	14	29	33	76	39	15	78	61	29	46	55	84	24	17	6	78	48	81	48	50	67	50	7	16	88	50	79	41	67	47	75	30	43	57	28	72	28	81	22	57	8	46	12	81	41	40	51	42	64	60	2	35	1	13	72	73	25	87	35	38	85	16	80	14	24	87	73	38	87	20	15	79	70	82	4	15	34	88	28	61	27	70	72	17	20	11	13	75	49	75	6	32	24	52
53	33	81	22	14	30	52	42	57	33	10	83	31	3	17	50	58	8	56	13	56	11	30	14	56	73	13	71	55	74	79	53	15	76	48	5	40	0	63	10	81	33	59	72	84	75	75	15	43	36	42	42	28	12	10	14	15	27	27	65	10	16	21	52	71	73	70	9	44	0	28	53	17	56	12	43	14	14	41	37	0	60	1	6	4	89	39	56	58	85	7	85	41	61	68	71	63	62	41	63	27
54	16	64	79	2	51	43	7	73	22	57	22	17	13	37	67	41	52	51	76	20	15	51	84	19	68	36	75	46	59	75	13	26	51	10	55	37	34	3	50	18	51	47	65	19	13	82	11	77	56	20	89	41	13	40	7	32	53	27	88	5	72	41	38	12	65	34	27	58	13	54	56	80	19	30	54	81	52	42	69	39	74	18	86	51	57	44	51	1	32	4	38	63	28	40	47	0	31	71	47	34
55	72	22	8	68	30	0	39	0	45	20	4	15	64	10	63	60	75	9	56	0	14	65	26	20	74	16	21	37	80	73	42	59	19	43	34	27	78	64	75	16	58	74	21	19	67	48	88	64	39	77	2	28	64	41	52	64	23	36	34	19	62	39	38	82	6	15	88	23	64	78	22	5	69	20	36	9	16	64	30	54	87	86	81	31	76	23	8	51	13	24	38	59	4	85	38	85	81	40	15	53
56	31	33	69	77	32	62	60	73	17	2	29	3	5	63	71	82	19	83	53	62	7	22	75	40	1	5	26	84	32	6	12	79	51	59	73	2	74	87	81	60	79	38	31	69	7	80	30	16	32	9	52	13	19	26	1	53	56	73	0	37	57	80	86	86	63	25	25	51	50	6	73	35	5	8	58	87	31	64	10	57	51	59	63	64	6	60	10	33	59	58	21	31	85	32	51	88	8	17	5	54
57	62	46	11	87	49	70	35	37	89	63	31	16	13	61	12	25	47	78	20	49	72	30	37	2	35	12	57	62	86	82	89	86	25	8	31	80	8	27	48	5	6	76	39	13	33	68	19	8	66	12	32	38	68	9	13	12	0	34	82	83	36	20	63	46	24	6	71	87	13	17	83	20	39	33	41	19	89	2	88	82	38	60	19	23	2	48	59	68	46	50	0	8	24	24	63	61	39	84	75	33
58	16	13	25	57	78	88	18	42	11	63	31	83	49	31	61	17	76	49	13	30	71	56	30	78	45	46	43	32	51	61	42	67	36	23	37	42	88	55	73	13	32	41	24	40	52	29	12	22	51	39	62	45	20	52	4	47	68	82	21	48	14	59	77	2	7	10	51	16	40	79	78	17	39	52	37	38	2	2	13	19	22	77	18	58	36	24	46	26	47	66	19	70	51	52	78	40	24	44	37	55
59	46	44	83	69	77	24	38	1	23	36	6	5	69	88	47	23	64	52	66	18	35	58	31	1	17	38	23	68	62	56	86	1	47	45	61	28	83	55	67	69	48	53	5	5	19	13	30	17	18	73	45	30	51	56	58	50	10	71	60	86	35	22	36	3	55	57	27	68	3	63	63	68	86	39	21	10	9	16	25	70	8	73	71	43	25	12	79	1	51	34	48	59	84	27	79	62	71	72	10	48
60	21	14	47	16	53	78	50	32	5	28	64	67	32	54	14	42	60	5	53	31	33	34	35	47	73	15	8	19	0	16	18	6	44	87	29	72	18	17	66	13	64	5	78	16	66	58	15	60	61	25	38	1	26	45	39	65	39	45	79	49	88	43	51	51	75	32	9	60	60	26	60	44	20	33	6	32	86	85	31	76	0	52	70	74	6	58	79	4	17	57	72	62	38	69	3	43	78	19	58	33
61	43	25	70	61	88	50	38	20	70	54	78	3	37	66	88	73	28	3	48	22	19	77	42	4	71	34	40	35	34	50	60	55	15	52	49	17	3	34	68	81	40	26	2	77	47	13	4	58	35	42	52	60	50	11	13	60	53	24	28	62	62	73	73	62	13	17	33	15	29	69	78	0	34	85	68	89	75	27	14	8	50	5	53	0	7	63	10	64	3	52	7	74	36	80	51	11	60	30	44	84
62	67	17	48	36	75	86	88	66	46	28	9	43	8	20	22	33	50	24	55	71	23	70	25	58	61	83	23	79	63	57	73	27	3	42	28	34	70	3	52	63	70	50	68	40	87	63	1	19	70	61	46	74	28	66	0	40	52	57	6	30	45	10	42	31	68	78	56	52	34	26	21	77	73	78	63	7	19	73	46	27	14	32	66	24	5	80	41	3	15	84	10	16	60	17	26	50	41	84	63	17
63	21	21	41	51	45	36	52	59	57	6	65	76	18	12	3	80	24	82	43	25	38	7	31	44	10	55	69	75	39	40	80	56	23	70	54	50	57	63	67	3	72	37	85	41	14	11	9	66	66	62	15	65	88	80	59	64	40	52	69	38	78	84	12	50	87	87	11	77	1	52	40	31	30	25	19	1	17	63	25	27	69	70	5	8	40	38	69	67	11	42	49	0	88	80	35	22	74	54	8	3
64	15	31	72	16	66	18	31	79	32	78	12	51	0	87	75	45	49	10	24	64	43	25	45	51	63	50	49	19	15	48	48	80	41	64	2	22	15	38	13	62	50	72	72	49	42	29	88	55	40	80	52	24	73	17	75	48	77	20	21	42	16	23	45	57	22	64	76	0	85	25	27	60	52	11	39	5	48	39	71	20	45	81	13	34	24	82	57	52	20	68	4	26	85	38	55	83	80	58	14	82
65	7	57	26	8	12	82	3	2	4	34	65	57	80	65	7	25	70	46	70	71	33	31	37	24	44	8	61	65	17	34	49	23	46	65	37	77	68	43	40	77	10	22	58	52	40	42	53	70	21	22	21	76	71	49	60	48	61	69	19	32	31	9	55	16	88	9	10	8	73	55	47	14	30	67	54	4	22	23	53	79	44	86	60	45	71	24	83	45	10	37	63	50	89	25	64	56	24	56	33	40
66	58	33	65	22	30	3	49	47	2	88	79	11	89	64	57	3	61	78	30	88	37	15	22	34	86	66	11	60	74	68	28	72	31	19	70	35	74	40	17	58	31	59	20	24	26	14	52	12	45	5	69	4	12	60	28	36	71	82	8	67	17	22	79	51	9	17	82	54	7	69	8	68	68	72	20	58	69	6	74	65	28	81	14	40	43	80	61	33	78	39	51	86	56	88	63	35	57	35	33	15
67	40	18	66	15	49	13	36	66	57	72	54	23	87	66	5	2	67	24	36	55	51	25	43	37	27	47	37	29	85	51	28	51	84	31	47	4	17	1	88	49	14	76	2	37	7	38	6	89	3	34	28	55	1	79	52	77	29	57	63	70	46	56	70	77	63	1	61	49	55	0	30	29	11	32	82	36	28	9	59	19	26	34	89	42	43	89	49	23	44	61	71	59	4	82	57	32	54	49	25	23
68	83	5	33	80	47	64	30	60	11	40	16	45	30	74	3	37	57	68	2	2	75	5	4	3	78	21	53	79	45	56	34	40	87	46	23	25	13	55	71	14	81	33	63	43	85	52	87	27	46	69	25	79	79	68	52	59	21	66	26	54	82	25	77	23	54	2	67	88	47	27	79	6	82	8	40	86	54	74	75	12	69	76	57	7	18	12	39	24	33	85	27	72	41	84	26	57	35	71	49	68
69	9	10	12	4	19	29	22	87	72	13	9	37	88	35	22	9	23	89	44	33	25	50	80	45	39	37	45	67	75	17	23	86	39	8	83	9	70	24	2	15	83	45	53	89	42	84	17	71	23	19	45	49	0	3	35	84	18	76	75	10	29	12	32	1	51	49	27	58	45	15	28	39	20	33	32	3	64	53	30	40	50	36	9	80	16	79	83	55	88	78	65	60	7	81	22	84	65	79	46	33
70	9	84	64	9	56	40	18	21	76	71	47	68	11	22	76	73	45	10	40	61	62	19	36	52	29	82	7	8	87	34	34	44	10	72	71	78	26	72	61	57	83	13	27	57	85	13	12	15	49	18	75	37	17	37	78	56	2	22	2	14	3	23	74	44	4	17	69	66	78	77	40	35	88	1	28	60	64	46	10	19	71	64	83	49	35	82	27	67	3	14	84	24	59	28	50	14	33	13	72	17
71	24	51	84	25	71	72	78	40	15	23	6	34	41	80	19	23	73	86	39	51	20	44	70	75	52	59	0	82	14	88	6	4	87	22	37	46	86	34	34	20	81	78	0	69	61	18	33	88	8	72	2	53	10	28	22	59	23	87	74	17	54	24	36	34	38	27	89	48	16	21	86	47	26	5	71	51	46	54	59	58	50	33	60	18	26	0	72	2	89	83	27	16	54	19	61	76	84	73	79	10
72	78	69	46	9	68	60	13	50	81	16	27	30	45	67	81	76	8	38	12	50	12	88	48	14	6	17	55	25	77	18	73	48	33	17	9	42	30	35	72	67	64	63	53	75	8	43	7	42	69	77	42	9	58	53	61	88	74	84	60	9	14	7	69	32	66	69	39	8	15	86	21	60	41	10	31	14	38	47	34	24	42	84	89	88	64	78	62	54	31	72	30	78	82	58	22	54	27	38	21	84
73	10	53	71	2	75	67	49	44	20	21	1	5	23	45	81	4	9	21	37	62	8	22	84	64	73	37	84	58	70	22	1	61	3	75	74	1	15	39	78	62	37	17	73	63	85	81	14	26	49	31	43	7	47	12	68	8	61	10	17	11	14	70	15	70	64	62	32	31	64	26	89	79	55	41	79	67	28	84	42	14	67	44	48	9	69	0	64	64	3	87	34	14	86	80	80	52	45	45	55	78
74	63	62	42	44	28	38	59	0	9	60	66	41	6	3	6	13	1	22	69	74	38	71	51	28	88	76	50	51	86	75	27	81	18	57	59	45	79	2	1	45	57	55	42	52	2	1	36	44	17	18	72	86	8	36	79	35	45	37	85	57	41	81	20	4	1	35	63	89	63	24	30	81	42	41	14	74	66	51	58	33	22	14	43	1	30	13	24	46	78	40	18	87	86	12	8	56	11	44	76	63
75	79	67	83	89	61	54	7	38	39	30	87	57	67	80	24	33	19	77	40	38	31	49	80	27	71	28	26	74	87	83	8	50	39	37	13	17	56	49	46	55	87	42	24	25	32	61	70	55	60	58	12	8	76	33	77	58	60	60	33	56	24	16	16	5	19	51	4	10	12	26	55	2	37	20	38	0	60	7	25	79	51	80	84	67	50	2	55	37	44	67	54	8	32	86	0	63	14	82	52	68
76	18	12	30	75	30	40	15	42	79	0	79	52	54	37	14	19	18	22	38	33	78	47	87	83	55	28	14	75	67	31	55	47	42	74	38	37	32	17	87	10	30	64	64	47	34	59	23	49	31	61	60	61	47	31	54	86	3	72	19	73	51	39	85	28	69	38	57	63	13	85	34	40	12	83	67	71	28	7	23	21	72	77	50	71	71	87	38	59	78	26	35	56	0	82	12	18	34	44	59	82
77	80	75	64	46	15	71	57	3	75	65	26	18	77	20	7	54	78	25	8	52	78	4	1	27	35	87	60	61	77	73	75	43	88	78	19	74	26	50	28	16	7	76	21	54	72	84	5	44	9	83	28	72	77	58	25	61	67	18	85	73	37	48	51	49	38	70	79	80	33	24	10	49	13	28	75	0	84	37	38	4	45	62	62	73	49	15	9	57	28	39	17	71	21	25	13	35	23	58	65	1
78	75	87	59	66	5	8	84	37	24	31	69	28	87	66	40	38	46	87	32	52	68	88	43	23	15	15	58	58	27	60	40	64	25	14	12	72	52	74	4	14	75	79	50	55	29	50	86	80	3	60	76	21	6	49	78	28	22	30	80	39	38	80	2	70	4	1	79	26	49	26	38	8	33	59	29	68	27	28	27	54	53	54	19	61	65	14	21	25	18	56	89	22	9	21	67	45	32	52	68	75
79	32	61	50	11	58	41	27	82	35	11	58	67	17	9	84	43	32	21	14	1	58	13	32	76	83	23	24	44	27	59	78	74	54	57	50	76	14	65	50	58	10	75	61	35	85	3	33	43	32	54	33	61	3	17	72	52	24	78	77	72	76	32	86	58	51	21	38	9	33	85	24	64	54	42	30	41	71	72	68	72	81	36	35	72	87	76	71	87	27	30	68	72	80	1	66	24	54	62	11	8
80	63	18	24	53	19	37	15	77	44	80	28	29	27	21	43	35	35	10	49	84	19	25	82	27	12	48	64	1	56	68	41	42	17	83	39	64	81	57	63	10	55	29	88	67	43	87	4	50	63	64	36	68	88	70	41	30	18	6	41	46	55	56	14	10	6	84	28	20	61	24	34	6	83	51	52	55	26	74	0	4	78	54	39	26	41	21	1	34	49	11	17	85	46	71	55	40	9	26	38	51
81	29	81	36	72	56	25	82	58	58	58	31	81	59	11	54	52	30	23	51	37	46	67	6	53	84	86	39	14	30	53	26	37	41	40	88	83	12	47	59	79	14	33	15	43	76	80	59	3	36	6	41	66	33	14	24	35	49	44	72	41	26	63	5	84	63	19	9	41	53	85	21	80	24	33	86	65	20	9	45	42	88	23	22	74	10	2	56	34	72	1	82	55	57	76	6	56	38	0	61	67
82	1	29	8	48	39	51	36	52	10	24	54	12	44	58	22	74	84	49	1	15	0	38	80	59	65	78	16	40	5	75	34	27	34	1	46	5	82	3	3	67	2	11	39	62	25	49	63	5	42	1	13	66	37	11	50	63	88	55	31	58	62	12	5	30	33	46	40	1	79	37	19	9	19	80	39	87	28	45	54	22	57	22	44	30	0	82	64	35	49	57	41	75	38	65	0	26	69	77	13	41
83	39	50	10	84	66	26	71	34	59	54	89	58	79	46	56	63	75	64	11	66	52	53	6	10	14	82	67	84	7	42	24	64	27	68	77	85	59	13	45	54	18	17	56	51	70	32	62	70	73	14	27	5	79	57	59	76	64	13	48	35	57	0	56	46	36	61	49	1	79	73	64	72	61	8	28	8	56	66	5	5	41	11	54	12	31	36	75	72	67	41	36	40	78	67	84	89	32	33	83	69
84	9	8	3	22	60	32	46	25	62	82	67	35	51	68	43	83	69	71	62	9	79	14	50	80	74	89	57	60	59	27	63	68	3	4	44	1	67	53	66	89	8	42	48	85	38	61	82	89	53	85	38	24	39	82	74	0	54	66	8	39	68	23	59	33	3	9	33	12	14	67	34	4	68	66	44	14	40	82	10	20	24	57	15	16	76	75	74	53	13	22	56	41	78	37	8	7	66	11	33	24
85	31	78	50	85	56	82	7	11	84	72	85	75	21	75	64	18	14	35	38	63	17	13	27	35	15	24	44	61	19	38	68	26	20	72	40	33	25	78	4	4	77	5	19	35	52	2	89	88	58	37	1	63	39	30	11	14	64	62	1	52	58	36	66	64	81	36	75	44	43	79	58	52	21	75	49	69	36	77	42	39	89	4	88	44	37	19	83	23	28	15	66	38	12	16	38	4	14	18	62	65
86	54	37	37	77	79	58	49	50	53	58	76	88	9	78	61	25	52	59	53	25	83	17	78	24	36	2	65	45	77	77	61	8	6	42	33	21	40	16	55	28	16	68	34	42	68	82	16	49	9	57	57	43	2	78	1	39	25	69	57	47	47	49	40	70	8	28	57	51	58	75	2	16	54	25	50	88	39	40	47	23	30	63	56	27	18	53	5	74	43	30	66	79	67	73	31	35	65	51	11	6
87	88	17	6	50	55	27	28	4	41	12	50	74	10	65	78	50	75	21	50	46	36	30	64	78	70	47	71	2	89	43	65	16	47	17	63	41	52	56	73	51	27	12	16	80	46	6	62	48	24	84	0	6	45	42	1	9	84	85	83	86	63	26	10	83	69	17	72	85	79	20	87	75	10	74	76	38	32	17	18	74	46	17	72	45	89	8	0	33	35	59	77	4	62	86	64	48	65	85	26	69
88	57	48	48	47	82	14	22	0	11	10	36	42	73	0	13	79	5	63	74	11	2	74	45	29	44	55	13	70	21	47	67	68	85	20	10	53	53	21	62	34	48	32	7	72	75	53	13	3	65	31	49	9	66	56	75	37	46	68	62	59	30	43	69	29	76	55	28	40	8	55	41	69	79	41	19	46	51	60	68	6	68	29	31	28	35	2	32	89	24	35	36	52	45	61	71	21	6	10	55	81
89	84	25	59	70	40	67	15	73	44	15	85	11	7	29	80	22	34	3	68	55	75	82	47	28	52	27	3	52	27	57	13	4	71	48	38	27	48	50	57	13	21	63	34	29	16	48	85	70	42	27	51	59	40	69	79	18	80	83	71	69	19	52	14	38	10	12	49	60	14	76	75	41	16	88	63	51	57	22	13	6	69	50	88	20	89	22	36	53	65	55	5	66	8	43	58	87	10	9	70	50
